XYDATA
TITLE: #  LaMnO3 - Polaris
! File saved from TOT-FIT
! File name: lamn_pol
! Scattering variable: TOF
!  Time-of-flight     Intensity
     7545.3120      212.2400        5.1300      206.5661
     7549.8320      211.9400        5.1200      206.4069
     7554.3672      204.7200        5.0400      206.2486
     7558.9019      202.5700        5.0100      206.0917
     7563.4380      199.9700        4.9900      205.9362
     7567.9731      209.9100        5.1200      205.7824
     7572.5078      205.9300        5.0700      205.6302
     7577.0591      203.3500        5.0300      205.4792
     7581.6089      200.7000        5.0200      205.3301
     7586.1602      202.9800        5.0400      205.1828
     7590.7100      209.1200        5.1300      205.0376
     7595.2612      206.3200        5.0900      204.8945
     7599.8271      206.6000        5.1000      204.7531
     7604.3921      210.5400        5.1500      204.6142
     7608.9429      212.1400        5.1900      204.4781
     7613.5088      201.5300        5.0300      204.3443
     7618.0889      204.5500        5.0900      204.2128
     7622.6548      207.0400        5.1300      204.0847
     7627.2212      204.3400        5.1000      203.9598
     7631.8018      199.1700        5.0300      203.8378
     7636.3828      199.0100        5.0500      203.7194
     7640.9639      202.0100        5.0700      203.6048
     7645.5449      208.5700        5.1800      203.5390
     7650.1260      206.7200        5.1400      203.4334
     7654.7222      202.9000        5.1000      203.3322
     7659.3179      199.8200        5.0700      203.2361
     7663.9150      212.5600        5.2300      203.1454
     7668.5112      210.3800        5.2100      203.0605
     7673.1069      205.3100        5.1500      202.9820
     7677.7031      209.4100        5.2100      202.9103
     7682.3140      200.3900        5.0800      202.8459
     7686.9258      204.5500        5.1600      202.7895
     7691.5381      198.5000        5.0700      202.7421
     7696.1641      199.9300        5.0900      202.7044
     7700.7749      195.2200        5.0600      202.6776
     7705.3872      200.7300        5.1100      202.6626
     7710.0142      200.8800        5.1200      202.6608
     7714.6401      204.6100        5.1800      202.6737
     7719.2671      206.1100        5.2000      202.7032
     7723.8940      202.8300        5.1600      202.7514
     7728.5352      212.8100        5.2800      202.8210
     7733.1768      203.4600        5.1800      202.9150
     7737.8188      201.3500        5.1400      203.0375
     7742.4600      209.6600        5.2700      203.1941
     7747.1030      210.0500        5.2700      203.3934
     7751.7598      210.0400        5.2700      203.6512
     7756.4009      205.4100        5.2400      203.9934
     7761.0430      205.1100        5.2200      204.4728
     7765.7012      197.8900        5.1300      205.1897
     7770.3730      209.6900        5.2700      206.3213
     7775.0449      212.5300        5.3300      208.1599
     7779.7021      207.9800        5.2800      211.1453
     7784.3589      215.9000        5.3900      215.9044
     7789.0308      220.7700        5.4300      223.2364
     7793.7192      228.2300        5.5300      233.9944
     7798.3911      246.4800        5.7700      248.7709
     7803.0630      259.0700        5.9100      267.8444
     7807.7510      282.0100        6.1700      290.8517
     7812.4380      309.3000        6.4700      316.6848
     7817.1260      335.6400        6.7400      342.4565
     7821.8130      366.0100        7.0500      365.5418
     7826.5010      391.2500        7.3000      383.0289
     7831.2041      405.1200        7.4100      392.8445
     7835.9058      408.8700        7.4800      394.2308
     7840.5942      402.7400        7.4300      388.2947
     7845.2969      383.8400        7.2400      376.5519
     7850.0151      379.0600        7.2000      361.2882
     7854.7329      358.4300        7.0100      345.1575
     7859.4360      331.1300        6.7600      330.7738
     7864.1382      313.9200        6.5700      320.5530
     7868.8560      301.6200        6.4500      316.9611
     7873.5889      301.2400        6.4300      322.6718
     7878.3232      312.6000        6.5800      340.3884
     7883.0410      335.9400        6.8300      372.3591
     7887.7739      374.8500        7.2000      420.2433
     7892.5068      438.3300        7.8200      483.6441
     7897.2402      525.9500        8.5500      559.6769
     7901.9731      629.4100        9.3900      642.4106
     7906.7061      740.5700       10.1700      723.1692
     7911.4551      842.9800       10.8700      792.0262
     7916.2031      896.5800       11.2200      839.4537
     7920.9521      923.8500       11.4000      859.8252
     7925.7002      929.7000       11.4500      852.3210
     7930.4629      875.3800       11.0900      820.3277
     7935.2271      827.8600       10.8300      770.1915
     7939.9912      745.7100       10.2500      709.4196
     7944.7539      661.5400        9.6900      645.1681
     7949.5181      588.8200        9.1200      583.1940
     7954.2969      505.7000        8.4600      527.4175
     7959.0601      454.4200        8.0500      480.6015
     7963.8242      398.6900        7.5300      443.6815
     7968.6030      370.1300        7.2600      416.9565
     7973.3970      347.1000        7.0200      400.5239
     7978.1909      336.5300        6.9400      394.4483
     7982.9702      315.7500        6.7300      398.8007
     7987.7490      322.5400        6.8100      413.8371
     7992.5430      338.4900        6.9600      440.1113
     7997.3521      366.5900        7.2500      478.2561
     8002.1460      418.2000        7.7800      528.4893
     8006.9399      501.7500        8.5000      591.1429
     8011.7500      583.8700        9.1800      666.3300
     8016.5591      709.6200       10.1400      753.1293
     8021.3682      841.6400       11.0600      850.1567
     8026.1768     1003.5500       12.0900      955.2239
     8030.9868     1160.0300       13.0200     1065.3789
     8035.8110     1313.4200       13.8400     1177.1263
     8040.6348     1457.0900       14.6400     1285.6306
     8045.4600     1553.7600       15.0900     1385.9764
     8050.2842     1621.8300       15.4900     1473.0725
     8055.1079     1645.3400       15.5700     1542.2998
     8059.9482     1659.8800       15.6600     1590.0833
     8064.7881     1655.2900       15.6500     1613.6318
     8069.6279     1602.9399       15.4200     1612.2528
     8074.4668     1581.9500       15.3300     1586.8177
     8079.3071     1526.4399       15.0700     1539.4751
     8084.1621     1484.9600       14.8300     1473.2123
     8089.0171     1402.5500       14.4700     1392.0731
     8093.8569     1309.7000       14.0000     1300.6365
     8098.7119     1214.3500       13.4400     1202.7640
     8103.5820     1115.6200       12.9000     1102.3125
     8108.4370     1018.8300       12.3700     1003.7839
     8113.2920      901.1000       11.6100      910.1337
     8118.1621      786.1600       10.8500      823.8447
     8123.0322      671.4400       10.0300      747.4547
     8127.9170      609.4100        9.5400      682.5363
     8132.8018      539.6000        9.0100      630.6550
     8137.6729      505.6900        8.7300      592.8041
     8142.5591      508.4400        8.7400      569.2589
     8147.4438      509.5900        8.7800      560.1980
     8152.3291      536.9200        9.0000      565.1175
     8157.2290      583.4800        9.3900      582.9647
     8162.1152      619.7800        9.7200      611.7915
     8167.0000      680.2700       10.1700      649.0056
     8171.9009      721.7400       10.4800      691.3993
     8176.8169      749.0100       10.6600      734.9740
     8181.7319      793.7700       11.0200      775.1918
     8186.6328      844.6700       11.3800      807.7037
     8191.5479      861.7700       11.4800      829.1428
     8196.4648      874.2100       11.6100      837.0818
     8201.3809      838.9300       11.3500      830.7076
     8206.2959      832.5000       11.3500      810.7012
     8211.2119      791.2500       11.0400      778.9482
     8216.1426      729.8400       10.6100      738.1003
     8221.0742      669.9600       10.1800      691.6129
     8226.0049      614.7900        9.7600      643.2263
     8230.9365      575.8800        9.4500      596.7823
     8235.8828      525.3400        9.0100      555.9674
     8240.8291      498.5800        8.8100      524.3196
     8245.7754      494.1200        8.7600      504.2611
     8250.7217      493.6500        8.7900      496.5419
     8255.6670      495.7600        8.7900      499.6053
     8260.6289      529.8600        9.1000      509.3994
     8265.5908      531.8200        9.1200      519.8219
     8270.5371      538.6300        9.2200      524.5840
     8275.4980      517.2400        8.9900      519.2111
     8280.4746      493.9800        8.8200      502.4748
     8285.4365      482.3300        8.7300      476.3015
     8290.3975      435.4800        8.3000      444.1866
     8295.3740      406.4100        8.0000      409.8832
     8300.3506      370.8200        7.6700      376.7267
     8305.3271      340.3500        7.3400      346.8211
     8310.3193      314.9400        7.0600      321.0637
     8315.3115      304.4800        6.9500      299.6789
     8320.3027      285.5900        6.7400      282.2962
     8325.2949      271.0100        6.5700      268.3279
     8330.2871      257.6300        6.4200      257.1703
     8335.2783      250.6700        6.3400      248.2773
     8340.2715      245.7700        6.2800      241.1851
     8345.2783      241.2000        6.2100      235.5113
     8350.2852      230.3100        6.0900      230.9782
     8355.2930      233.4400        6.1200      227.3484
     8360.3145      227.6400        6.0500      224.4288
     8365.3369      234.1000        6.1400      222.0814
     8370.3594      220.3900        5.9700      220.1895
     8375.3818      220.8400        5.9800      218.6608
     8380.4043      223.6700        6.0300      217.8408
     8385.4268      221.4100        6.0000      216.8408
     8390.4492      225.7400        6.0700      216.0281
     8395.4863      214.5200        5.9000      215.3651
     8400.5234      228.7800        6.1200      214.8257
     8405.5615      228.3400        6.1000      214.3871
     8410.6143      221.2700        6.0100      214.0303
     8415.6670      214.7200        5.9300      213.7424
     8420.7197      213.1000        5.9200      213.5118
     8425.7725      212.9300        5.9200      213.3293
     8430.8252      216.3600        5.9700      213.1876
     8435.8779      225.8300        6.1100      213.0808
     8440.9307      229.1700        6.1600      213.0042
     8445.9990      211.8300        5.9100      212.9541
     8451.0664      209.4800        5.9000      212.9275
     8456.1348      215.8200        5.9800      212.9220
     8461.2178      205.1800        5.8400      212.9358
     8466.3008      211.1500        5.9300      212.9674
     8471.3691      213.2300        5.9800      213.0153
     8476.4385      215.8700        6.0100      213.0786
     8481.5361      211.6600        5.9400      213.1571
     8486.6348      214.0200        6.0000      213.2498
     8491.7178      219.2800        6.0800      213.3562
     8496.8154      214.4600        6.0000      213.4765
     8501.9141      216.6600        6.0500      213.6103
     8507.0127      214.7600        6.0100      213.7577
     8512.1260      217.9800        6.0700      213.9192
     8517.2246      214.3300        6.0400      214.0941
     8522.3223      211.8000        5.9900      214.2831
     8527.4365      213.5600        6.0200      214.4874
     8532.5654      207.2300        5.9200      214.7076
     8537.6943      208.1500        5.9600      214.9437
     8542.8076      206.6400        5.9500      215.1958
     8547.9365      217.5200        6.0900      215.4662
     8553.0654      222.5700        6.1800      215.7554
     8558.1943      219.6700        6.1300      216.0644
     8563.3389      218.7200        6.1300      216.3958
     8568.4678      211.3900        6.0500      216.7491
     8573.5967      211.7900        6.0400      217.1272
     8578.7402      220.6900        6.1700      217.5331
     8583.8994      217.9200        6.1200      217.9698
     8589.0586      216.6200        6.1300      218.4388
     8594.2031      217.5400        6.1500      218.9418
     8599.3623      214.6400        6.1000      219.4853
     8604.5215      219.2200        6.1900      220.0721
     8609.6816      216.3600        6.1400      220.7074
     8614.8555      211.1400        6.0700      221.3986
     8620.0146      212.8600        6.1200      222.1488
     8625.1748      217.3800        6.1700      222.9678
     8630.3486      227.2400        6.3200      223.8675
     8635.5381      215.6400        6.1400      224.8601
     8640.7285      215.6300        6.1700      225.9572
     8645.9033      228.5200        6.3600      227.1713
     8651.0928      223.9200        6.2800      228.5306
     8656.2822      230.1500        6.3900      230.0590
     8661.4717      221.2000        6.2600      231.7948
     8666.6768      227.8900        6.3600      233.8063
     8671.8818      235.1100        6.4600      236.2048
     8677.0869      228.6700        6.3800      239.2301
     8682.2920      232.2600        6.4400      243.3864
     8687.4971      235.5300        6.4900      249.6898
     8692.7021      241.2800        6.5800      260.0189
     8697.9219      266.6900        6.9000      277.5369
     8703.1426      313.4300        7.5100      306.7091
     8708.3623      350.8600        7.9400      352.8832
     8713.5977      431.6800        8.8100      421.1870
     8718.8184      519.7100        9.7100      513.5406
     8724.0381      630.9300       10.6900      627.6224
     8729.2734      761.9900       11.7600      755.4827
     8734.5088      875.8000       12.6300      883.6269
     8739.7598      994.7900       13.4400      999.0280
     8745.0107     1081.0300       14.0700     1094.1304
     8750.2461     1169.7800       14.6500     1171.1606
     8755.4961     1254.7500       15.1500     1240.5323
     8760.7617     1315.9000       15.5400     1314.8882
     8766.0127     1400.5699       16.1000     1404.1368
     8771.2627     1515.8101       16.7200     1512.8777
     8776.5283     1642.3199       17.4300     1638.6083
     8781.7949     1799.1100       18.2700     1771.2596
     8787.0605     1915.2900       18.8800     1896.1921
     8792.3418     1991.1100       19.2200     1997.4669
     8797.6230     2028.5699       19.4800     2060.3486
     8802.8887     2046.7200       19.6000     2075.5989
     8808.1699     2030.6200       19.4800     2040.5986
     8813.4668     1936.2800       19.0400     1958.2493
     8818.7471     1846.5800       18.6700     1837.2062
     8824.0283     1705.1500       17.9000     1688.0938
     8829.3242     1562.1500       17.1500     1522.2144
     8834.6211     1351.3101       15.9600     1351.1244
     8839.9326     1205.7000       15.0400     1183.8533
     8845.2441     1035.2300       13.9900     1027.9871
     8850.5400      909.2000       13.1200      888.4633
     8855.8516      758.4200       11.9600      766.6696
     8861.1631      642.8000       11.0500      663.3837
     8866.4746      555.7200       10.2600      577.6176
     8871.8018      491.4800        9.6500      507.3818
     8877.1279      440.0200        9.1500      450.8230
     8882.4551      389.2900        8.6100      405.6802
     8887.7812      375.4500        8.4700      369.8957
     8893.1084      348.5600        8.1700      341.6330
     8898.4502      327.9500        7.9100      319.3078
     8903.7920      305.8500        7.6700      301.7386
     8909.1338      291.0000        7.4700      287.9077
     8914.4766      292.4300        7.5200      277.2762
     8919.8184      284.0100        7.3900      268.6843
     8925.1748      271.8500        7.2400      261.8858
     8930.5322      252.2700        6.9900      256.5211
     8935.8896      250.7100        6.9700      252.2926
     8941.2471      251.9600        7.0000      248.9695
     8946.6191      247.8500        6.9300      246.3671
     8951.9912      242.4700        6.8800      244.3570
     8957.3643      262.0500        7.1400      242.8331
     8962.7363      257.0400        7.1000      241.7151
     8968.1084      249.1200        6.9800      240.9425
     8973.4961      245.6400        6.9400      240.4142
     8978.8838      250.4800        7.0100      240.3008
     8984.2715      245.0500        6.9500      240.3533
     8989.6592      247.3700        6.9900      240.6478
     8995.0469      233.7100        6.8000      241.1836
     9000.4336      236.5000        6.8500      241.9688
     9005.8359      242.8500        6.9300      243.0253
     9011.2393      246.6300        7.0100      244.3821
     9016.6426      240.4200        6.9100      246.0881
     9022.0605      240.0300        6.9100      248.2318
     9027.4785      249.9100        7.0600      250.9624
     9032.8965      238.0700        6.9000      254.5895
     9038.3145      247.2600        7.0400      259.7621
     9043.7324      262.7500        7.2700      267.8164
     9049.1504      270.9300        7.3900      281.3518
     9054.5840      295.9700        7.7100      305.1165
     9060.0166      333.3600        8.2200      346.6854
     9065.4502      415.3500        9.1600      416.9934
     9070.8994      536.9900       10.4300      529.8767
     9076.3477      718.7400       12.0800      698.5654
     9081.7959      946.9000       13.8900      931.6281
     9087.2441     1259.9900       16.0500     1226.8928
     9092.6924     1574.2200       17.9800     1566.3795
     9098.1416     1888.1400       19.7300     1914.5415
     9103.6035     2172.1101       21.1400     2223.0146
     9109.0684     2400.8701       22.3300     2441.1230
     9114.5322     2522.0100       22.8500     2535.2485
     9119.9961     2475.6299       22.7300     2498.9714
     9125.4590     2371.9199       22.2100     2350.9417
     9130.9385     2199.8000       21.4000     2124.3899
     9136.4180     1934.0000       20.0800     1858.0468
     9141.8965     1634.2200       18.4700     1585.7762
     9147.3906     1358.6300       16.8000     1331.0427
     9152.8848     1113.5900       15.2600     1108.2959
     9158.3633      912.2800       13.8300      922.7383
     9163.8574      737.1300       12.4000      772.0994
     9169.3662      605.7400       11.2500      652.3799
     9174.8760      512.5100       10.3600      558.6498
     9180.3701      439.0200        9.6300      485.9238
     9185.8799      403.9500        9.2000      429.3120
     9191.4043      372.0800        8.8600      385.2898
     9196.9141      349.9000        8.6000      351.1989
     9202.4238      332.4800        8.4000      324.6653
     9207.9482      317.8100        8.2000      303.9103
     9213.4727      297.9600        7.9700      287.6726
     9218.9971      294.0600        7.9000      274.9217
     9224.5361      281.2300        7.7400      264.8425
     9230.0762      265.0100        7.5200      256.8586
     9235.6162      259.8700        7.4500      250.5008
     9241.1562      259.0800        7.4500      245.4065
     9246.6963      256.6500        7.4300      241.2770
     9252.2354      246.5200        7.2900      237.9372
     9257.7900      230.5000        7.0400      235.1935
     9263.3457      241.9500        7.2400      232.9265
     9268.9004      246.2200        7.2900      231.0370
     9274.4707      240.0400        7.2100      229.4427
     9280.0254      234.7500        7.1600      228.0920
     9285.5801      238.6300        7.2000      226.9332
     9291.1504      229.6200        7.0700      225.9269
     9296.7363      230.3000        7.0700      225.0452
     9302.3213      225.2000        7.0200      224.2683
     9307.8916      226.5600        7.0500      223.5796
     9313.4775      225.1900        7.0200      222.9611
     9319.0781      222.3400        6.9800      222.4019
     9324.6631      229.7300        7.1300      221.8960
     9330.2490      217.0800        6.9200      221.4344
     9335.8506      223.2900        7.0300      221.0102
     9341.4512      224.9700        7.0600      220.6199
     9347.0518      221.5000        7.0100      220.2597
     9352.6670      225.9000        7.0700      219.9256
     9358.2822      215.0600        6.9300      219.6160
     9363.8984      226.7200        7.1000      219.3289
     9369.5146      225.2200        7.1100      219.0626
     9375.1309      224.2700        7.0800      218.8158
     9380.7617      228.3200        7.1500      218.5870
     9386.3926      223.7500        7.0900      218.3760
     9392.0234      215.1300        6.9600      218.1824
     9397.6553      209.1100        6.8700      218.0059
     9403.2861      214.9300        6.9700      217.8465
     9408.9326      223.3700        7.1000      217.7038
     9414.5781      205.7600        6.8400      217.5788
     9420.2246      216.0800        7.0000      217.4721
     9425.8867      223.8000        7.1300      217.3845
     9431.5479      218.3900        7.0500      217.3173
     9437.2090      218.1900        7.0600      217.2724
     9442.8711      211.7500        6.9600      217.2517
     9448.5322      217.7800        7.0700      218.8353
     9454.1934      225.3900        7.2000      218.8934
     9459.8711      214.0200        7.0100      218.9870
     9465.5479      210.4900        6.9800      219.1220
     9471.2246      206.0700        6.8900      219.3079
     9476.9170      218.6500        7.1100      219.5620
     9482.5938      220.3300        7.1600      219.9158
     9488.2715      223.5200        7.2000      220.4377
     9493.9619      235.6400        7.4100      221.2688
     9499.6689      220.7100        7.1600      222.6859
     9505.3770      214.6300        7.0900      225.1796
     9511.0684      218.9600        7.1700      229.5290
     9516.7754      229.6100        7.3300      236.8877
     9522.4980      249.9100        7.6500      248.6599
     9528.2051      265.5400        7.9200      266.1067
     9533.9121      293.1900        8.3100      290.0229
     9539.6348      316.0300        8.6400      320.1154
     9545.3574      360.7100        9.2400      354.2799
     9551.0947      392.6100        9.6200      388.7030
     9556.8330      423.1700       10.0300      418.3120
     9562.5547      436.9800       10.2000      438.0760
     9568.2930      442.9300       10.2600      445.1490
     9574.0303      424.8900       10.0900      439.3356
     9579.7676      423.2000       10.0500      422.9521
     9585.5215      403.9500        9.8300      399.5916
     9591.2734      379.1300        9.5400      373.2187
     9597.0264      345.9100        9.1200      347.1116
     9602.7939      319.3800        8.7500      323.4556
     9608.5635      301.9500        8.5400      303.4794
     9614.3154      290.6800        8.3900      287.5556
     9620.0830      276.0200        8.1600      275.4057
     9625.8672      262.4300        7.9700      266.6857
     9631.6348      272.6100        8.1500      261.1541
     9637.4023      263.6700        8.0100      258.6692
     9643.1865      265.3000        8.0400      260.2143
     9648.9697      271.2500        8.1400      267.3471
     9654.7686      285.5400        8.3400      283.3232
     9660.5664      317.7500        8.8300      313.2513
     9666.3643      359.8900        9.3900      365.6191
     9672.1631      436.7500       10.3800      445.6536
     9677.9619      557.1900       11.7100      562.0929
     9683.7764      742.1200       13.5300      718.9711
     9689.5898      919.4000       15.0900      912.4822
     9695.4033     1135.8800       16.8000     1129.4714
     9701.2168     1344.0800       18.3000     1346.6168
     9707.0312     1507.7000       19.4100     1533.6608
     9712.8594     1631.2700       20.1700     1661.3553
     9718.6885     1701.2300       20.6800     1710.3856
     9724.5176     1694.2400       20.6000     1678.3665
     9730.3613     1606.9301       20.0900     1577.1254
     9736.1904     1435.2900       19.0500     1428.4432
     9742.0195     1278.3700       17.9400     1255.7277
     9747.8643     1081.5400       16.5200     1079.4324
     9753.7236      921.0500       15.2200      914.9288
     9759.5830      769.9900       13.9600      771.5312
     9765.4268      652.5400       12.8700      652.7994
     9771.2861      530.1900       11.5800      557.5817
     9777.1611      453.6300       10.7200      483.5802
     9783.0215      420.4800       10.3600      428.1732
     9788.8799      380.1500        9.8400      388.5634
     9794.7539      377.7800        9.8200      362.9628
     9800.6445      372.3400        9.7400      350.7633
     9806.5342      367.5500        9.7100      352.1834
     9812.4082      370.0200        9.7500      367.6982
     9818.2979      396.1900       10.0800      397.6643
     9824.1885      442.9800       10.7000      441.2806
     9830.0781      493.6600       11.2800      495.9399
     9835.9834      549.6300       11.9200      556.9607
     9841.8877      600.0500       12.4700      617.1147
     9847.7930      669.4000       13.1800      668.3779
     9853.6982      691.4200       13.4200      702.4025
     9859.6035      731.7000       13.8200      714.6149
     9865.5234      698.4500       13.4800      704.1257
     9871.4434      686.6600       13.4200      673.7679
     9877.3633      645.0500       12.9800      628.8727
     9883.2998      587.8400       12.4100      575.5472
     9889.2207      522.3000       11.7400      519.9951
     9895.1406      454.8900       10.9400      466.7675
     9901.0908      422.9400       10.5300      418.7010
     9907.0410      356.9000        9.7100      377.6260
     9912.9766      328.0400        9.3200      343.9225
     9918.9268      311.4500        9.0700      316.9220
     9924.8779      291.7600        8.8100      295.7964
     9930.8291      274.5700        8.5400      279.5105
     9936.7949      276.6100        8.5800      267.0510
     9942.7607      274.4600        8.5600      257.6072
     9948.7266      252.5500        8.2200      250.4830
     9954.6924      241.7000        8.0500      245.1320
     9960.6582      245.9500        8.1300      241.1344
     9966.6396      248.4600        8.1600      238.1650
     9972.6201      247.6000        8.1800      235.9940
     9978.6025      249.3300        8.1900      234.4384
     9984.5830      245.2400        8.1600      233.3628
     9990.5645      242.8300        8.1100      232.6644
     9996.5605      241.6800        8.1000      232.2664
    10002.5566      232.3300        7.9500      232.1140
    10008.5684      243.7700        8.1300      232.3900
    10014.5801      241.4400        8.1200      232.6177
    10020.5771      222.4500        7.8100      232.9952
    10026.5889      243.6900        8.1600      233.5092
    10032.6152      237.8600        8.0700      234.1503
    10038.6416      233.9200        8.0100      234.9116
    10044.6689      237.0300        8.0800      235.7910
    10050.6953      238.9800        8.1200      236.7889
    10056.7227      230.8200        7.9900      237.9090
    10062.7490      236.9800        8.1000      239.1569
    10068.7764      245.4300        8.2600      240.5414
    10074.8174      244.4500        8.2300      242.0766
    10080.8750      236.4700        8.1000      243.7783
    10086.9170      236.3200        8.1300      245.6540
    10092.9590      229.7600        8.0100      247.7278
    10099.0166      242.2200        8.2300      250.0298
    10105.0732      245.4100        8.3000      252.5835
    10111.1465      240.2000        8.2000      255.4316
    10117.2188      248.7600        8.3700      258.6086
    10123.2910      247.5700        8.3400      262.1651
    10129.3633      249.3000        8.4000      265.9845
    10135.4365      252.9300        8.4500      270.4972
    10141.5234      254.5700        8.4900      275.6272
    10147.6113      262.0700        8.6300      281.4802
    10153.6992      271.3800        8.7900      288.2024
    10159.7871      274.0400        8.8400      296.1306
    10165.8740      281.2000        8.9700      305.2903
    10171.9775      289.4600        9.0900      316.3622
    10178.0801      300.4000        9.2900      330.3155
    10184.1826      318.1500        9.5500      348.9973
    10190.3018      343.7700        9.9400      377.1394
    10196.4199      385.4000       10.5400      422.8878
    10202.5371      468.7500       11.6300      501.6013
    10208.6553      578.2400       12.9400      638.8469
    10214.7734      810.5600       15.3400      872.4370
    10220.9062     1241.0000       18.9700     1252.0916
    10227.0400     1869.0699       23.3900     1829.3672
    10233.1729     2716.1201       28.2100     2643.2271
    10239.3213     3843.1899       33.6600     3701.8997
    10245.4707     5075.2402       38.8000     4953.9380
    10251.6191     6350.4800       43.5500     6282.2085
    10257.7676     7396.2598       47.1400     7511.0933
    10263.9160     8313.8301       50.1200     8443.4844
    10270.0645     8792.0098       51.6500     8925.1738
    10276.2285     8825.8896       51.6900     8898.6807
    10282.4082     8395.5098       50.4400     8408.3057
    10288.5713     7634.1899       48.2100     7577.0874
    10294.7354     6755.1099       45.2400     6554.6753
    10300.9141     5567.1401       41.0300     5480.1680
    10307.0928     4459.1602       36.7000     4464.1655
    10313.2871     3535.2700       32.5900     3569.8491
    10319.4814     2756.4900       28.8500     2826.4287
    10325.6602     2127.4900       25.3500     2233.7556
    10331.8535     1683.7800       22.5100     1771.8113
    10338.0645     1375.4000       20.3600     1418.2772
    10344.2588     1115.8500       18.4000     1152.1545
    10350.4521      964.9800       17.0900      952.4811
    10356.6768      848.6100       16.0100      802.4993
    10362.9014      772.2900       15.3200      690.7538
    10369.1113      684.1600       14.4400      607.8796
    10375.3359      632.8400       13.8700      546.3831
    10381.5605      593.4900       13.4900      501.2118
    10387.7852      558.8100       13.0700      468.4720
    10394.0244      537.7700       12.8400      445.2630
    10400.2646      518.8700       12.6300      429.5876
    10406.5049      499.1300       12.4000      419.9753
    10412.7441      485.3300       12.2400      415.4572
    10418.9844      470.4600       12.0700      415.5551
    10425.2393      470.1600       12.0500      420.4424
    10431.4941      481.0900       12.2400      431.3328
    10437.7500      507.7400       12.5600      451.3733
    10444.0195      541.3200       12.9900      487.3065
    10450.2900      563.8200       13.2700      551.6568
    10456.5615      675.3900       14.5400      665.6158
    10462.8311      847.8000       16.3200      860.9595
    10469.1016     1151.7300       19.0600     1179.6637
    10475.3867     1663.9900       22.9000     1669.1466
    10481.6719     2375.7800       27.4900     2367.3921
    10487.9580     3312.5100       32.4700     3287.4336
    10494.2588     4402.4502       37.5500     4400.5942
    10500.5596     5590.9600       42.4500     5616.1333
    10506.8604     6707.1099       46.6400     6789.1616
    10513.1611     7688.0000       50.0700     7743.4380
    10519.4619     8233.5000       51.9400     8322.4648
    10525.7773     8403.2598       52.4200     8443.8633
    10532.0938     8141.3901       51.7800     8119.3374
    10538.4092     7580.2900       49.8700     7440.0991
    10544.7402     6636.5098       46.6500     6535.0269
    10551.0566     5652.2202       43.1500     5543.5127
    10557.3721     4705.6602       39.2700     4575.5488
    10563.7188     3725.7500       34.8600     3702.9045
    10570.0654     2854.7100       30.5900     2971.3928
    10576.3975     2272.1201       27.3000     2395.8027
    10582.7432     1840.8300       24.5400     1971.6683
    10589.1055     1640.1700       23.1800     1692.0409
    10595.4512     1539.0100       22.5400     1549.1022
    10601.7969     1570.9200       22.7500     1530.2454
    10608.1592     1668.4800       23.4800     1616.9331
    10614.5215     1825.9200       24.6000     1777.7869
    10620.8975     1984.1600       25.6300     1967.0887
    10627.2744     2123.5601       26.6200     2129.0618
    10633.6514     2151.0200       26.7600     2214.2236
    10640.0283     2090.9500       26.4900     2194.3096
    10646.4053     2104.8000       26.5500     2074.3567
    10652.7969     1874.3600       25.0800     1879.8185
    10659.1895     1704.0000       23.9400     1645.8112
    10665.5820     1474.2400       22.2900     1405.5332
    10671.9883     1243.3800       20.4500     1182.9125
    10678.3965     1002.6300       18.4200      991.8203
    10684.8027      828.3800       16.7300      836.3584
    10691.2100      702.3400       15.4600      714.3038
    10697.6172      602.4900       14.3000      620.6254
    10704.0400      522.6600       13.3400      549.4476
    10710.4629      466.6000       12.6200      495.9789
    10716.8857      426.1000       12.0800      455.5484
    10723.3232      384.9400       11.4700      424.9716
    10729.7607      379.6000       11.4300      401.8557
    10736.1982      371.3900       11.3000      384.3667
    10742.6357      350.1100       11.0100      371.1905
    10749.0732      329.9900       10.6800      361.4457
    10755.5264      332.3700       10.7300      354.6634
    10761.9785      322.6600       10.5900      350.9534
    10768.4326      323.1600       10.6200      351.2141
    10774.9014      344.0400       10.9400      357.6418
    10781.3691      355.9700       11.1700      374.2472
    10787.8369      392.6700       11.7200      407.2066
    10794.3057      471.9700       12.9000      464.5233
    10800.7734      561.2700       14.0600      554.4187
    10807.2568      681.0100       15.5100      682.7607
    10813.7393      875.9100       17.6200      848.2561
    10820.2383     1086.2500       19.6000     1040.2479
    10826.7373     1230.1899       20.9400     1235.6250
    10833.2207     1374.6500       22.1700     1402.8129
    10839.7188     1485.9000       23.0400     1511.7998
    10846.2334     1513.3900       23.2800     1543.3315
    10852.7471     1500.5400       23.2200     1496.5662
    10859.2598     1370.5900       22.2200     1386.7034
    10865.7744     1276.8101       21.4700     1237.6440
    10872.2881     1103.5699       19.9900     1073.7883
    10878.8027      962.0000       18.6800      914.9025
    10885.3311      786.8500       16.8800      773.3867
    10891.8750      652.0000       15.3900      655.0225
    10898.4043      552.2800       14.2100      560.8080
    10904.9336      465.1800       13.0300      487.8746
    10911.4775      411.8800       12.2800      432.3508
    10918.0215      366.9400       11.6100      390.5971
    10924.5811      346.9900       11.2800      359.2386
    10931.1406      322.9300       10.9200      335.7329
    10937.7002      300.4400       10.5300      318.0586
    10944.2598      312.0000       10.7700      304.7180
    10950.8193      277.8700       10.1500      294.6219
    10957.3945      275.9800       10.1300      286.9830
    10963.9688      287.0000       10.3500      281.3177
    10970.5439      290.4800       10.4300      277.3694
    10977.1338      285.0300       10.3200      275.1918
    10983.7236      276.4000       10.2000      275.2936
    10990.3135      280.5500       10.2700      278.8223
    10996.9033      293.2200       10.5300      287.8111
    11003.4932      314.9500       10.9100      305.3265
    11010.0977      336.3000       11.2900      335.4147
    11016.7031      381.1900       12.0300      382.3091
    11023.3086      452.8500       13.1300      449.2863
    11029.9287      533.6500       14.2500      537.1820
    11036.5488      640.4900       15.6600      642.1263
    11043.1699      756.3700       17.0100      754.9859
    11049.8047      867.3700       18.2400      861.7490
    11056.4248      932.7800       18.9900      945.3037
    11063.0459      990.5600       19.5500      991.8219
    11069.6963      970.5600       19.3400      994.9082
    11076.3477      953.8600       19.2400      957.4239
    11082.9824      916.7300       18.8900      887.8477
    11089.6338      827.0500       17.9200      798.6816
    11096.2842      707.5300       16.6400      702.7599
    11102.9346      622.9500       15.6000      610.3164
    11109.6006      525.9100       14.3500      527.8263
    11116.2676      440.5800       13.1500      458.6456
    11122.9336      373.0200       12.1200      403.1880
    11129.6143      355.7800       11.8300      360.0679
    11136.2949      324.2400       11.3300      327.3642
    11142.9766      299.8900       10.8900      302.9012
    11149.6738      279.1900       10.5200      284.7037
    11156.3535      273.6400       10.4600      271.2698
    11163.0361      272.0500       10.4200      261.3131
    11169.7324      259.0200       10.1800      253.9052
    11176.4434      248.8100        9.9700      248.3750
    11183.1553      244.1600        9.9100      244.2372
    11189.8672      260.7200       10.2300      241.1263
    11196.5791      251.0900       10.0800      238.7753
    11203.2900      240.8700        9.8600      236.9904
    11210.0176      234.6400        9.7500      235.6269
    11216.7441      241.9700        9.9100      234.5860
    11223.4707      246.8200       10.0300      233.7919
    11230.1982      244.1300        9.9900      233.1891
    11236.9404      241.3300        9.9200      232.7370
    11243.6816      238.4500        9.9000      232.4077
    11250.4238      233.8800        9.7900      232.1803
    11257.1816      238.6800        9.9100      232.0402
    11263.9385      239.6200        9.9400      231.9787
    11270.6963      249.7300       10.1600      231.9907
    11277.4531      241.0900       10.0000      232.0758
    11284.2266      232.2600        9.8000      232.2404
    11290.9990      226.2600        9.7100      232.5014
    11297.7715      249.0000       10.1800      232.9178
    11304.5439      232.5800        9.8700      233.5389
    11311.3174      233.5600        9.8800      234.5609
    11318.1035      238.1600        9.9900      236.3239
    11324.9062      240.1700       10.0300      239.4209
    11331.7100      252.3400       10.3100      244.7688
    11338.4980      247.4900       10.2300      253.6086
    11345.3008      266.9100       10.6100      267.4645
    11352.1191      275.1400       10.7900      287.7573
    11358.9219      308.9400       11.4700      315.1400
    11365.7246      348.3000       12.1700      349.1442
    11372.5586      397.2600       12.9800      387.6956
    11379.3916      437.2000       13.6700      426.4476
    11386.2100      472.0900       14.2200      459.7529
    11393.0439      485.4800       14.4100      482.2107
    11399.8770      460.3400       14.0800      490.1360
    11406.7100      479.9100       14.3700      483.0630
    11413.5586      466.8200       14.1900      463.3281
    11420.4072      431.0400       13.6500      435.0678
    11427.2559      422.8000       13.5400      402.8554
    11434.1201      358.5600       12.4600      369.7921
    11440.9834      355.3000       12.4400      340.4238
    11447.8477      320.1500       11.8000      315.4476
    11454.7119      284.7400       11.1700      295.3028
    11461.5752      269.4800       10.8600      279.6973
    11468.4551      262.2400       10.7300      267.9411
    11475.3340      257.9700       10.6500      259.3085
    11482.2275      267.7300       10.8400      253.0713
    11489.1221      252.7800       10.5700      248.6534
    11496.0166      250.7900       10.5200      245.5925
    11502.9111      252.0500       10.5900      243.5446
    11509.8047      238.7300       10.2900      242.2618
    11516.7148      253.9800       10.6300      241.5686
    11523.6240      231.7800       10.1700      241.3502
    11530.5332      237.7700       10.3100      241.5328
    11537.4580      241.5400       10.3900      242.0851
    11544.3828      251.1500       10.6300      243.0225
    11551.3076      248.7100       10.5700      244.4379
    11558.2471      245.7500       10.5200      246.5773
    11565.1719      250.7400       10.6600      249.9586
    11572.0967      250.6000       10.6500      255.6302
    11579.0518      265.9900       10.9600      265.5418
    11586.0078      282.8100       11.3400      282.8307
    11592.9473      289.3400       11.4900      312.0285
    11599.9023      342.3500       12.4800      359.1392
    11606.8730      440.0200       14.1600      430.4982
    11613.8438      554.5300       15.9200      530.7211
    11620.8145      682.3900       17.6900      660.4690
    11627.7842      808.2400       19.2700      813.9547
    11634.7539      978.6600       21.2400      977.3498
    11641.7246     1132.8400       22.8800     1129.7842
    11648.7109     1206.3000       23.5900     1247.3165
    11655.7119     1300.1100       24.5300     1309.6975
    11662.6973     1300.7000       24.6200     1308.1254
    11669.6826     1254.9399       24.1600     1247.5172
    11676.6982     1149.3800       23.1000     1141.9839
    11683.7148     1046.6000       22.1200     1010.7458
    11690.7158      894.6300       20.4700      872.5991
    11697.7314      734.0800       18.5300      741.3608
    11704.7480      630.3500       17.2300      626.2815
    11711.7637      537.7300       15.9000      531.2022
    11718.7949      435.6900       14.3300      455.1515
    11725.8262      370.3700       13.2300      397.6141
    11732.8574      348.3100       12.8500      354.5975
    11739.9043      301.1600       11.9400      322.8078
    11746.9502      286.9500       11.7000      299.5323
    11753.9971      283.3000       11.6100      282.5098
    11761.0596      281.7200       11.6000      270.0102
    11768.1055      282.6100       11.6500      260.6726
    11775.1670      264.7000       11.2500      253.8513
    11782.2441      271.9800       11.4400      248.7423
    11789.3057      263.7500       11.2800      244.8945
    11796.3672      254.6400       11.1000      241.9559
    11803.4443      234.0200       10.6300      239.6787
    11810.5361      239.7400       10.7800      237.8909
    11817.6289      234.1500       10.6600      236.4695
    11824.7207      231.9500       10.6300      235.3225
    11831.8135      252.5700       11.1100      234.3821
    11838.9043      259.3300       11.2700      233.5996
    11846.0117      228.0700       10.5600      232.9371
    11853.1201      227.6600       10.5900      232.3697
    11860.2266      239.7400       10.8600      231.8775
    11867.3486      225.8000       10.5500      231.4443
    11874.4717      241.9600       10.9300      231.0599
    11881.5947      233.0000       10.7500      230.7155
    11888.7178      242.6600       10.9800      230.4043
    11895.8555      231.7100       10.7200      230.1205
    11902.9932      231.3900       10.7500      229.8605
    11910.1309      219.3500       10.4600      229.6209
    11917.2842      232.8300       10.7900      229.3986
    11924.4385      240.3500       10.9800      229.1918
    11931.5898      234.3100       10.8600      228.9988
    11938.7432      242.9500       11.0700      228.8179
    11945.8965      214.6600       10.4200      228.6479
    11953.0635      221.9300       10.5900      228.4873
    11960.2471      235.5700       10.9200      228.3354
    11967.4307      213.7700       10.4200      228.1915
    11974.5986      215.8000       10.5100      228.0554
    11981.7822      232.1500       10.8700      227.9257
    11988.9814      208.8400       10.3400      227.8022
    11996.1650      224.2600       10.7300      227.6847
    12003.3633      229.5600       10.8500      227.5726
    12010.5635      222.2600       10.7200      227.4655
    12017.7607      234.8400       11.0100      227.2460
    12024.9746      237.3100       11.0800      227.1498
    12032.1885      219.1000       10.6600      227.0580
    12039.4170      230.6200       10.9300      226.9703
    12046.6465      213.3200       10.5500      226.8868
    12053.8760      231.2400       10.9800      226.8074
    12061.1035      210.9400       10.5200      226.7320
    12068.3340      221.0800       10.7600      226.6607
    12075.5781      229.7900       10.9900      226.5934
    12082.8223      213.0700       10.6000      226.5303
    12090.0674      214.9500       10.6600      226.4715
    12097.3271      216.2900       10.6900      226.4171
    12104.5859      223.4500       10.9000      226.3676
    12111.8457      221.8200       10.8500      226.3232
    12119.1211      219.8600       10.8200      226.2843
    12126.3965      218.3400       10.8000      226.2515
    12133.6709      227.0900       11.0300      226.2255
    12140.9453      229.5100       11.1100      226.2071
    12148.2197      219.1600       10.8700      226.1975
    12155.5098      229.7100       11.1200      226.1978
    12162.8154      242.2300       11.4300      226.2100
    12170.1211      222.6200       10.9800      226.2365
    12177.4111      226.4200       11.1100      226.2809
    12184.7158      222.7300       10.9900      226.3496
    12192.0361      238.0900       11.4000      226.4552
    12199.3408      225.0300       11.1100      226.6226
    12206.6611      231.0800       11.2500      226.9039
    12213.9814      238.1100       11.4600      227.3994
    12221.3018      227.9900       11.2000      228.2907
    12228.6377      222.4200       11.0800      229.8816
    12235.9736      220.7100       11.0600      232.6157
    12243.3252      223.0100       11.1100      237.0787
    12250.6758      241.0700       11.5900      243.8870
    12258.0264      261.7000       12.0700      253.5325
    12265.3770      275.1100       12.4100      266.1349
    12272.7285      281.2000       12.5400      281.1983
    12280.0947      291.4300       12.7900      297.4811
    12287.4600      315.0500       13.3200      312.9280
    12294.8408      325.0300       13.5200      325.1442
    12302.2227      344.7900       13.9700      331.9857
    12309.6035      327.2100       13.6000      332.3499
    12316.9863      317.2200       13.4400      326.7137
    12324.3672      318.6600       13.4600      316.3881
    12331.7637      305.9300       13.2200      303.2378
    12339.1592      276.7200       12.5900      289.1833
    12346.5713      278.8900       12.6300      275.7198
    12353.9834      264.0700       12.3400      263.8640
    12361.3965      259.2700       12.2200      254.0576
    12368.8066      250.3300       12.0500      246.3316
    12376.2188      245.6200       11.9300      240.4554
    12383.6465      248.8300       12.0300      236.0913
    12391.0879      237.3700       11.7400      232.9053
    12398.5303      222.1800       11.4000      230.6049
    12405.9570      226.7000       11.5300      228.9532
    12413.3994      235.4200       11.7400      227.7625
    12420.8574      239.6400       11.8700      226.9034
    12428.3145      225.6000       11.5300      226.2846
    12435.7715      214.6200       11.2700      225.8396
    12443.2285      213.7000       11.2600      225.5220
    12450.6865      234.5400       11.8100      225.2996
    12458.1592      226.8800       11.6100      225.1499
    12465.6318      214.4100       11.3300      225.0587
    12473.1035      221.4500       11.5100      225.0159
    12480.5918      248.7600       12.2100      225.0157
    12488.0801      241.6100       12.0500      225.0553
    12495.5674      221.8100       11.5700      225.1342
    12503.0703      213.6100       11.3500      225.2543
    12510.5732      222.9100       11.6300      225.4200
    12518.0771      220.6200       11.5700      225.6390
    12525.5947      216.1900       11.4700      225.9264
    12533.1133      219.0400       11.5600      226.3103
    12540.6318      219.4100       11.5900      226.8495
    12548.1494      234.4400       11.9900      227.6658
    12555.6836      231.8700       11.9200      229.0074
    12563.2168      233.3800       12.0000      231.3333
    12570.7500      251.7800       12.4600      235.4351
    12578.2988      263.7300       12.7700      242.5562
    12585.8477      272.3500       12.9900      254.3713
    12593.3965      271.4500       12.9900      272.8307
    12600.9453      300.4100       13.6800      299.7034
    12608.5088      333.2800       14.4000      335.9482
    12616.0732      372.9800       15.2900      380.7068
    12623.6377      436.9500       16.5400      430.8081
    12631.2168      468.8800       17.1500      480.6911
    12638.7949      513.0700       17.9700      522.8097
    12646.3740      549.8900       18.6300      549.9053
    12653.9678      555.5000       18.7100      557.4510
    12661.5635      547.3300       18.6400      545.0852
    12669.1582      535.2600       18.4200      516.4156
    12676.7676      496.1600       17.7600      477.0736
    12684.3770      435.5400       16.6700      433.3030
    12691.9863      387.7900       15.7500      390.3768
    12699.5957      344.1000       14.8600      351.9005
    12707.2051      304.0000       13.9900      319.6957
    12714.8301      288.1300       13.6200      294.0815
    12722.4707      282.1300       13.4900      274.5179
    12730.1104      244.5800       12.5800      260.0334
    12737.7510      248.2300       12.7000      249.5037
    12745.3906      234.4000       12.3600      241.9270
    12753.0312      241.5800       12.5600      236.4897
    12760.6865      230.2000       12.2500      232.5724
    12768.3408      221.2100       12.0600      229.7379
    12775.9961      218.4000       11.9700      227.6658
    12783.6670      239.1700       12.5400      226.1295
    12791.3369      212.2500       11.8300      224.9760
    12799.0078      223.4100       12.1600      224.0948
    12806.6934      224.6100       12.1800      223.4079
    12814.3789      235.9500       12.5300      222.8629
    12822.0645      224.9700       12.2200      222.4214
    12829.7656      231.7900       12.4200      222.0557
    12837.4668      220.9400       12.1500      221.7473
    12845.1680      218.6500       12.1000      221.4824
    12852.8682      224.5200       12.2800      221.2509
    12860.5693      223.1100       12.2500      221.0454
    12868.2861      230.5700       12.4500      220.8602
    12876.0166      240.3900       12.7300      220.6913
    12883.7480      225.6400       12.3500      220.5359
    12891.4785      204.8500       11.7800      220.3918
    12899.2109      233.1100       12.5800      220.2571
    12906.9424      229.6200       12.5000      220.1303
    12914.6885      236.0000       12.6700      220.0102
    12922.4355      213.5700       12.0900      219.8959
    12930.1816      229.6700       12.5300      219.7868
    12937.9434      220.7200       12.3000      219.6820
    12945.7061      211.8600       12.0700      219.4747
    12953.4678      214.1500       12.1500      219.3788
    12961.2441      229.4700       12.5600      219.2858
    12969.0215      214.8800       12.2000      219.1956
    12976.7979      219.7700       12.3200      219.1080
    12984.5898      234.7200       12.7500      219.0225
    12992.3828      216.7700       12.2700      218.9391
    13000.1748      229.9000       12.6500      218.8577
    13007.9824      212.5700       12.1600      218.7777
    13015.7900      209.6100       12.1100      218.6994
    13023.5977      197.1300       11.7400      218.6225
    13031.4199      195.6500       11.7100      218.5468
    13039.2275      218.7200       12.4100      218.4725
    13047.0508      223.7900       12.5200      218.3992
    13054.8877      230.6300       12.7500      218.3267
    13062.7109      247.3700       13.2200      218.2553
    13070.5488      216.9300       12.3800      218.1848
    13078.3867      238.7400       13.0200      218.1150
    13086.2246      235.5800       12.9200      218.0460
    13094.0771      225.1500       12.6500      217.9776
    13101.9463      205.4400       12.0800      217.9097
    13109.8145      194.1800       11.7800      217.8424
    13117.6670      210.7800       12.2900      217.7758
    13125.5352      236.8100       13.0100      217.7097
    13133.4189      213.4100       12.3700      217.6439
    13141.3027      211.7200       12.3300      217.5786
    13149.1865      197.3300       11.9200      217.5137
    13157.0703      217.5500       12.5300      217.4493
    13164.9688      226.3900       12.7700      217.3852
    13172.8672      223.5000       12.7300      217.3214
    13180.7656      210.5700       12.3400      217.2579
    13188.6797      223.7500       12.7400      217.1947
    13196.5938      216.3200       12.5400      217.1318
    13204.5078      211.9000       12.4200      217.0692
    13212.4385      225.8500       12.8100      217.0067
    13220.3662      197.8300       12.0300      216.9445
    13228.2959      219.8000       12.6700      216.8825
    13236.2402      232.8500       13.0500      216.8206
    13244.1846      221.5300       12.7500      216.7590
    13252.1299      212.1500       12.4900      216.6976
    13260.0732      212.3700       12.5100      216.6364
    13268.0322      207.2100       12.3500      216.5753
    13275.9922      215.0000       12.6200      216.5143
    13283.9521      209.9700       12.4600      216.4535
    13291.9268      219.3400       12.7400      216.3928
    13299.9023      217.0000       12.6900      216.3322
    13307.8770      221.4800       12.8400      216.2717
    13315.8662      236.5500       13.2500      216.2113
    13323.8564      205.3100       12.3900      216.1511
    13331.8467      207.4900       12.4400      216.0909
    13339.8525      239.8200       13.3900      216.0308
    13347.8574      224.6400       12.9700      215.9708
    13355.8633      212.0400       12.6200      215.9109
    13363.8682      201.8400       12.3300      215.8511
    13371.8887      191.2200       11.9900      215.7913
    13379.9248      211.1500       12.6100      215.7314
    13387.9453      205.3800       12.4700      215.6718
    13395.9658      211.9500       12.6600      215.6123
    13404.0020      218.5200       12.8700      215.5528
    13412.0527      220.3600       12.9100      215.4932
    13420.1035      235.6900       13.3900      215.4337
    13428.1543      232.1900       13.2800      215.3743
    13436.2207      215.4500       12.8100      215.3149
    13444.2871      211.6000       12.7100      215.2555
    13452.3525      228.1000       13.2000      215.1962
    13460.4189      207.5500       12.6100      215.1369
    13468.4854      203.2400       12.4900      215.0777
    13476.5664      205.9900       12.5700      215.0185
    13484.6631      210.1200       12.7100      214.9592
    13492.7598      213.0600       12.8100      214.9000
    13500.8564      221.1900       13.0600      214.8408
    13508.9531      212.7800       12.8300      214.7817
    13517.0498      223.1200       13.1500      214.7226
    13525.1611      208.7600       12.7100      214.6635
    13533.2734      217.6100       13.0100      214.6044
    13541.3848      228.1200       13.3100      214.5454
    13549.5117      211.4500       12.8300      214.4863
    13557.6396      199.0300       12.4700      214.4272
    13565.7822      204.9800       12.6400      214.3681
    13573.9238      214.1600       12.9600      214.3090
    13582.0654      206.6500       12.7200      214.2499
    13590.2227      204.5400       12.6700      214.1908
    13598.3809      206.3500       12.7400      214.1317
    13606.5391      213.7100       12.9800      214.0726
    13614.6963      216.6900       13.0800      214.0136
    13622.8535      215.1300       13.0500      213.9546
    13631.0254      220.9700       13.2200      213.8956
    13639.2139      226.9700       13.4100      213.8364
    13647.4014      217.4700       13.1400      213.7664
    13655.5898      204.8300       12.7700      213.7074
    13663.7783      222.1000       13.3100      213.6485
    13671.9814      220.1200       13.2400      213.5895
    13680.1846      203.3400       12.7700      213.5305
    13688.3877      226.3300       13.4600      213.4715
    13696.6055      219.4800       13.2700      213.4125
    13704.8242      227.0600       13.5100      213.3535
    13713.0430      213.9700       13.1300      213.2944
    13721.2754      223.5000       13.4100      213.2353
    13729.5088      226.7400       13.5500      213.1763
    13737.7432      219.0100       13.3000      213.1172
    13745.9912      210.0500       13.0500      213.0580
    13754.2402      229.4900       13.6500      212.9989
    13762.4893      197.5100       12.6800      212.9398
    13770.7383      207.1700       13.0000      212.8807
    13779.0020      209.7700       13.0700      212.8215
    13787.2812      203.3500       12.8900      212.7622
    13795.5449      205.2900       12.9900      212.7030
    13803.8096      201.4400       12.8600      212.6439
    13812.1035      210.3700       13.1300      212.5846
    13820.3984      222.1900       13.5300      212.5252
    13828.6768      221.2400       13.5200      212.4660
    13836.9717      212.3200       13.2400      212.4067
    13845.2822      212.7900       13.2700      212.3473
    13853.5918      198.8600       12.8500      212.2879
    13861.9014      202.0200       12.9600      212.2286
    13870.2109      223.1100       13.6300      212.1692
    13878.5361      213.8400       13.3400      212.1097
    13886.8760      208.8500       13.2000      212.0502
    13895.2002      205.6400       13.1400      211.9908
    13903.5254      195.8100       12.8200      211.9313
    13911.8809      208.9500       13.2300      211.8717
    13920.2363      225.1400       13.7700      211.8121
    13928.5771      212.3800       13.3900      211.7526
    13936.9326      199.7200       12.9800      211.6930
    13945.3018      214.4400       13.4600      211.6333
    13953.6729      208.1800       13.2800      211.5736
    13962.0430      219.0600       13.6400      211.5139
    13970.4141      204.7100       13.2100      211.4542
    13978.7998      196.4900       12.9300      211.3945
    13987.1855      200.2900       13.0900      211.3347
    13995.5713      206.1300       13.2800      211.2750
    14003.9717      221.9300       13.7900      211.2151
    14012.3730      210.9600       13.4600      211.1553
    14020.7744      200.8100       13.1500      211.0617
    14029.1904      192.1700       12.8600      211.0021
    14037.6221      203.6400       13.2500      210.9425
    14046.0381      215.8700       13.6800      210.8830
    14054.4541      211.4900       13.5400      210.8235
    14062.8857      222.0100       13.8800      210.7638
    14071.3320      195.1000       13.0100      210.7041
    14079.7793      206.3500       13.4200      210.6443
    14088.2256      205.5000       13.3900      210.5846
    14096.6885      206.8600       13.4500      210.5247
    14105.1494      197.4300       13.1600      210.4649
    14113.6113      177.7400       12.5000      210.4051
    14122.0732      203.5700       13.3900      210.3452
    14130.5352      201.4600       13.3400      210.2854
    14139.0117      226.0700       14.1200      210.2254
    14147.5049      221.7600       14.0000      210.1654
    14155.9971      225.2200       14.1200      210.1053
    14164.4893      219.4400       13.9600      210.0452
    14172.9814      230.1500       14.3100      209.9852
    14181.4893      204.1400       13.4800      209.9250
    14189.9961      224.1800       14.1600      209.8648
    14198.5039      207.0800       13.6100      209.8047
    14207.0273      197.1700       13.3000      209.7444
    14215.5498      205.2300       13.5800      209.6841
    14224.0723      223.9700       14.2000      209.6238
    14232.6104      215.2900       13.9200      209.5634
    14241.1631      234.5400       14.5400      209.5030
    14249.7012      224.0000       14.2600      209.4426
    14258.2393      205.6900       13.6600      209.3822
    14266.8076      194.9400       13.2900      209.3216
    14275.3760      206.4200       13.7200      209.2610
    14283.9297      206.7400       13.7400      209.2005
    14292.4980      206.7500       13.7400      209.1399
    14301.0811      189.8400       13.1800      209.0792
    14309.6650      202.8200       13.6400      209.0185
    14318.2490      204.1100       13.7000      208.9578
    14326.8320      205.0900       13.7500      208.8971
    14335.4307      211.1000       13.9400      208.8362
    14344.0303      206.4800       13.8300      208.7754
    14352.6289      191.0500       13.3000      208.7146
    14361.2432      199.1500       13.5900      208.6537
    14369.8574      184.8700       13.1200      208.5928
    14378.4863      209.1500       13.9400      208.5317
    14387.1162      227.4700       14.5700      208.4707
    14395.7451      216.5400       14.2100      208.4097
    14404.3896      224.7300       14.5000      208.3485
    14413.0342      224.0300       14.4900      208.2874
    14421.6777      208.3400       14.0000      208.2263
    14430.3223      216.9500       14.3000      208.1651
    14438.9824      193.8200       13.5100      208.1039
    14447.6572      192.8000       13.4900      208.0425
    14456.3320      186.8200       13.3000      207.9812
    14465.0078      218.8800       14.4000      207.9198
    14473.6826      191.4700       13.5000      207.8585
    14482.3574      207.8300       14.0700      207.7971
    14491.0469      234.0600       14.9200      207.7357
    14499.7373      203.4700       13.9600      207.6742
    14508.4277      195.2400       13.6700      207.6127
    14517.1328      195.0700       13.6800      207.5512
    14525.8535      196.4200       13.7200      207.4895
    14534.5742      186.6300       13.4200      207.4278
    14543.2949      219.0800       14.5200      207.3661
    14552.0146      203.8700       14.0500      207.3045
    14560.7363      205.6700       14.1000      207.2428
    14569.4727      194.1800       13.7200      207.1810
    14578.2227      210.6800       14.2800      207.1191
    14586.9736      204.1800       14.1000      207.0572
    14595.7246      203.0400       14.0600      206.9953
    14604.4912      202.4300       14.0500      206.9333
    14613.2568      183.9700       13.4200      206.8713
    14622.0234      181.0900       13.3300      206.8093
    14630.7900      175.2000       13.1300      206.7473
    14639.5713      215.3800       14.5400      206.6852
    14648.3535      209.7500       14.3900      206.6231
    14657.1348      201.9300       14.1100      206.5610
    14665.9316      207.4400       14.3200      206.4988
    14674.7275      200.4000       14.0900      206.4366
    14683.5400      217.4600       14.6700      206.3743
    14692.3516      202.3400       14.1900      206.3119
    14701.1641      184.8500       13.5600      206.2496
    14709.9912      192.6400       13.8600      206.1872
    14718.8174      195.0000       13.9600      206.1248
    14727.6445      212.2000       14.5700      206.0623
    14736.4717      211.5500       14.5700      205.9999
    14745.3145      207.3900       14.4200      205.9373
    14754.1719      213.7300       14.6500      205.8747
    14763.0303      211.0700       14.5800      205.8121
    14771.8877      188.0900       13.7900      205.7494
    14780.7441      199.9700       14.2300      205.6868
    14789.6025      220.5500       14.9500      205.7682
    14798.4756      222.3800       15.0100      205.7073
    14807.3633      204.4200       14.4100      205.6463
    14816.2510      206.2800       14.4900      205.5854
    14825.1387      214.8100       14.8000      205.5245
    14834.0273      219.1800       14.9700      205.4636
    14842.9307      235.5800       15.5100      205.4027
    14851.8340      228.1200       15.3000      205.3418
    14860.7363      215.9300       14.8900      205.2810
    14869.6553      210.2800       14.7100      205.2201
    14878.5742      208.4000       14.6600      205.1593
    14887.5078      192.1100       14.0700      205.0984
    14896.4414      214.9300       14.9200      205.0375
    14905.3750      193.2300       14.1500      204.9767
    14914.3232      204.0600       14.5500      204.9159
    14923.2725      216.5700       15.0000      204.8550
    14932.2217      210.2600       14.8000      204.7943
    14941.1855      191.0200       14.1100      204.7335
    14950.1494      204.3800       14.6300      204.6727
    14959.1143      232.3200       15.5800      204.6121
    14968.0928      230.6300       15.5400      204.5513
    14977.0723      203.3300       14.6200      204.4907
    14986.0674      173.1300       13.4900      204.4299
    14995.0615      198.1900       14.4700      204.3693
    15004.0557      213.1500       14.9900      204.3088
    15013.0654      217.5600       15.1600      204.2482
    15022.0752      211.5500       14.9700      204.1876
    15031.0859      198.9800       14.5400      204.1272
    15040.0957      182.5100       13.9400      204.0668
    15049.1201      206.7700       14.8200      204.0064
    15058.1445      205.0000       14.8000      203.9461
    15067.1699      213.3500       15.0900      203.8859
    15076.2100      209.7000       14.9800      203.8256
    15085.2656      191.4200       14.3100      203.7654
    15094.3213      221.7100       15.4300      203.7052
    15103.3760      205.5600       14.8600      203.6452
    15112.4473      203.7900       14.8100      203.5851
    15121.5176      211.6400       15.1100      203.5252
    15130.5879      202.2500       14.7900      203.4653
    15139.6582      205.2700       14.9200      203.4056
    15148.7441      196.0000       14.5700      203.3459
    15157.8301      208.7700       15.0800      203.2863
    15166.9160      193.0900       14.5000      203.2268
    15176.0176      202.4800       14.8600      203.1674
    15185.1338      208.3100       15.0600      203.1080
    15194.2500      203.0900       14.9200      203.0488
    15203.3672      207.7600       15.0800      202.9897
    15212.4834      214.6800       15.3700      202.9307
    15221.5996      210.4900       15.2100      202.8719
    15230.7314      198.8500       14.8000      202.8132
    15239.8779      187.7700       14.3800      202.7545
    15249.0244      199.9900       14.8800      202.6961
    15258.1709      203.8700       15.0100      202.6378
    15267.3330      208.9200       15.2100      202.5796
    15276.4951      207.3000       15.1700      202.5216
    15285.6572      211.1600       15.3300      202.4638
    15294.8184      187.3400       14.4700      202.4062
    15303.9961      218.9400       15.6200      202.3488
    15313.1885      219.9000       15.6700      202.2915
    15322.3809      222.3300       15.7700      202.2345
    15331.5732      215.0300       15.5300      202.1777
    15340.7656      217.1300       15.6300      202.1212
    15349.9727      210.6800       15.3900      202.0649
    15359.1807      212.5700       15.5000      202.0089
    15368.3887      193.0300       14.7700      201.9532
    15377.6113      182.4200       14.3800      201.8977
    15386.8340      172.3900       14.0000      201.8426
    15396.0723      192.6000       14.7800      201.7877
    15405.3096      207.9100       15.3900      201.7332
    15414.5479      186.6600       14.5900      201.6792
    15423.8018      202.2600       15.2000      201.6254
    15433.0547      232.6100       16.3000      201.5721
    15442.3086      206.2500       15.3800      201.5192
    15451.5762      204.5100       15.3100      201.4668
    15460.8604      195.8800       15.0000      201.4147
    15470.1289      208.1900       15.5000      201.3633
    15479.4121      226.9000       16.1500      201.3123
    15488.7109      216.4800       15.8200      201.2619
    15497.9951      214.4500       15.7600      201.2122
    15507.2939      196.5500       15.0900      201.1630
    15516.6084      202.0200       15.3100      201.1145
    15525.9072      211.7100       15.7200      201.0668
    15535.2207      205.9100       15.4700      201.0198
    15544.5498      204.1400       15.4500      200.9736
    15553.8643      219.9700       16.0500      200.9283
    15563.1943      192.3500       15.0100      200.8839
    15572.5391      193.8600       15.0900      200.8405
    15581.8828      213.8200       15.8600      200.7981
    15591.2275      224.3800       16.2600      200.7568
    15600.5869      210.3900       15.7400      200.7167
    15609.9473      214.5200       15.9400      200.6778
    15619.3066      203.4500       15.5200      200.6404
    15628.6816      204.7900       15.5900      200.6044
    15638.0566      202.4900       15.5200      200.5699
    15647.4473      180.6000       14.6600      200.5370
    15656.8369      193.4900       15.2100      200.5060
    15666.2275      208.3100       15.7700      200.4770
    15675.6328      199.4300       15.4500      200.4500
    15685.0391      202.6000       15.5900      200.4252
    15694.4443      202.4500       15.6100      200.4029
    15703.8652      188.5700       15.0600      200.3832
    15713.2861      186.8000       15.0300      200.3664
    15722.7061      182.7000       14.8600      200.3526
    15732.1426      203.0800       15.6800      200.3422
    15741.5781      199.5800       15.5700      200.3355
    15751.0283      221.6600       16.3900      200.3327
    15760.4805      199.4400       15.6000      200.3343
    15769.9316      199.2800       15.5800      200.3406
    15779.3975      198.0400       15.5600      200.3521
    15788.8633      196.1300       15.5000      200.3694
    15798.3301      203.2200       15.7900      200.3930
    15807.8135      184.4400       15.0500      200.4235
    15817.3086      187.6300       15.2000      200.4618
    15826.7900      208.2800       16.0500      200.5086
    15836.2871      204.1400       15.8600      200.5649
    15845.7988      200.4500       15.7600      200.6318
    15855.2959      215.7000       16.3600      200.7105
    15864.8086      203.9600       15.9100      200.8026
    15874.3350      197.4500       15.6800      200.9097
    15883.8623      213.9800       16.3400      201.0336
    15893.3896      215.1100       16.4000      201.1767
    15902.9170      205.9300       16.0700      201.3415
    15912.4590      207.8900       16.1400      201.5313
    15922.0176      204.0300       16.0100      201.7501
    15931.5596      204.4600       16.0800      202.0013
    15941.1172      198.5400       15.8100      202.2910
    15950.6895      216.7900       16.5700      202.6257
    15960.2471      213.3000       16.4500      203.0120
    15969.8203      202.7000       16.0400      203.4607
    15979.4082      204.3700       16.1300      203.9841
    15988.9971      220.4000       16.7600      204.5983
    15998.5850      214.8400       16.5700      205.3281
    16008.1885      223.6900       16.9000      206.2169
    16017.8066      207.7200       16.3200      207.3439
    16027.4102      196.4800       15.9200      208.8596
    16037.0137      216.3700       16.7000      211.0688
    16046.6465      236.4300       17.4400      214.5610
    16056.2803      195.4800       15.9200      220.3709
    16065.9141      233.8400       17.3900      230.2183
    16075.5479      254.4900       18.1900      246.6949
    16085.1816      275.7100       18.9200      273.2947
    16094.8467      310.4300       20.0700      314.2711
    16104.5107      385.8000       22.4200      373.8705
    16114.1748      438.3700       23.8800      453.8425
    16123.8389      535.1600       26.4500      554.0208
    16133.5029      692.6600       30.0800      669.4712
    16143.1826      778.2300       31.9200      790.3512
    16152.8770      928.6900       34.8500      901.9429
    16162.5713      982.5200       35.9600      987.1018
    16172.2666      998.1200       36.2300     1031.3513
    16181.9756     1038.8800       37.0200     1027.7716
    16191.6855      984.0500       36.0800      978.9959
    16201.3965      933.1900       35.1900      895.2886
    16211.1201      766.9700       31.9000      790.6802
    16220.8457      699.0900       30.5500      679.5758
    16230.5713      545.2700       26.9900      573.7599
    16240.3115      462.1700       24.9000      480.9050
    16250.0518      401.1700       23.2400      404.8856
    16259.8066      358.4000       21.9700      345.9728
    16269.5635      290.5400       19.8600      302.4475
    16279.3174      290.0000       19.8400      271.4646
    16289.0879      255.5700       18.6600      249.9622
    16298.8594      241.8700       18.1900      235.3263
    16308.6465      258.0900       18.7800      225.4302
    16318.4307      234.8700       17.9800      218.7436
    16328.2178      232.7800       17.8900      214.1783
    16338.0186      221.0800       17.4700      211.0057
    16347.8193      219.8900       17.4500      208.7551
    16357.6201      183.7700       16.0000      207.1173
    16367.4365      234.6800       18.0400      205.8913
    16377.2686      201.6800       16.7700      204.9493
    16387.0996      198.9300       16.6800      204.2090
    16396.9316      233.2500       18.0700      203.6143
    16406.7637      209.9800       17.1800      203.1278
    16416.6113      221.4900       17.6400      202.7233
    16426.4570      203.2000       16.9600      202.3837
    16436.3047      181.3300       16.0300      202.0958
    16446.1660      201.4900       16.9100      201.8500
    16456.0430      207.5600       17.1600      201.6392
    16465.9219      207.8400       17.2200      201.4582
    16475.7988      192.0600       16.5700      201.3028
    16485.6914      196.9900       16.8000      201.1693
    16495.5840      200.3800       16.9700      201.0550
    16505.4766      167.2400       15.5400      200.9576
    16515.3672      175.8700       15.9600      200.8751
    16525.2754      214.3400       17.5900      200.8057
    16535.1992      223.2300       17.9800      200.7481
    16545.1211      182.1000       16.2800      200.7011
    16555.0449      165.8900       15.5800      200.6637
    16564.9824      191.0100       16.7000      200.6350
    16574.9199      197.3800       17.0200      200.6141
    16584.8574      222.4700       18.0500      200.6004
    16594.8125      197.6700       17.0600      200.5933
    16604.7656      202.0500       17.2700      200.5922
    16614.7344      214.2100       17.7700      200.5967
    16624.7031      191.7000       16.8800      200.6064
    16634.6719      197.0900       17.1100      200.6208
    16644.6543      219.3600       18.0600      200.6398
    16654.6387      206.6600       17.5700      200.6629
    16664.6367      193.5900       17.0100      200.6899
    16674.6367      197.6400       17.2400      200.7206
    16684.6348      177.0300       16.3300      201.4496
    16694.6504      181.7900       16.5700      201.4963
    16704.6641      182.5300       16.6200      201.5464
    16714.6953      214.0500       17.9800      201.5998
    16724.7246      213.1000       18.0000      201.6562
    16734.7520      196.7200       17.3000      201.7157
    16744.7969      199.1700       17.4300      201.7782
    16754.8418      208.8200       17.8700      201.8436
    16764.8867      199.5800       17.5000      201.9117
    16774.9453      198.3000       17.4500      201.9827
    16785.0215      218.2700       18.3200      202.0566
    16795.0957      210.9100       18.0400      202.1332
    16805.1719      228.0700       18.7700      202.2125
    16815.2480      218.0600       18.3900      202.2945
    16825.3379      221.5800       18.5400      202.3794
    16835.4434      217.0200       18.3700      202.4671
    16845.5488      215.4100       18.3300      202.5577
    16855.6543      237.2300       19.2500      202.6511
    16865.7598      211.9400       18.2400      202.7474
    16875.8789      202.5000       17.8300      202.8468
    16886.0000      234.1700       19.2100      202.9492
    16896.1211      227.7300       18.9500      203.0548
    16906.2578      211.2100       18.2800      203.1638
    16916.4082      205.8300       18.0500      203.2764
    16926.5605      201.7200       17.9300      203.3924
    16936.7109      176.2200       16.7700      203.5121
    16946.8770      184.7100       17.1900      203.6357
    16957.0449      216.8800       18.6300      203.7634
    16967.2266      199.6300       17.8800      203.8954
    16977.4082      200.9700       17.9900      204.0319
    16987.5898      189.8100       17.4900      204.1730
    16997.7852      179.1600       17.0200      204.3192
    17007.9824      190.2600       17.5600      204.4706
    17018.1797      212.1800       18.5500      204.6275
    17028.3926      186.4800       17.4100      204.7906
    17038.6191      210.0200       18.4800      204.9602
    17048.8457      203.8300       18.2400      205.1365
    17059.0742      217.0800       18.8400      205.3200
    17069.3008      211.6500       18.6300      205.5111
    17079.5430      211.9600       18.6400      205.7109
    17089.8008      202.7200       18.2600      205.9198
    17100.0586      208.7800       18.5500      206.1384
    17110.3164      196.3700       18.0200      206.3674
    17120.5742      201.0000       18.2600      206.6077
    17130.8477      202.9000       18.3400      206.8607
    17141.1348      203.4400       18.3900      207.1274
    17151.4238      197.0600       18.1300      207.4088
    17161.7109      212.8700       18.8500      207.7061
    17172.0000      221.8500       19.2700      208.0211
    17182.3027      222.1700       19.2800      208.3558
    17192.6230      219.9100       19.2100      208.7124
    17202.9414      231.9200       19.7400      209.0926
    17213.2598      203.9700       18.5600      209.4990
    17223.5781      191.4600       18.0100      209.9345
    17233.9121      201.0800       18.4500      210.4033
    17244.2617      221.6800       19.3800      210.9093
    17254.6094      217.3800       19.2200      211.4565
    17264.9590      200.0500       18.4800      212.0500
    17275.3086      214.0400       19.1300      212.6962
    17285.6719      198.6500       18.4300      213.4031
    17296.0508      201.5800       18.5900      214.1797
    17306.4316      180.8100       17.6500      215.0352
    17316.8105      188.0800       18.0200      215.9815
    17327.1895      199.2600       18.5600      217.0333
    17337.5840      206.6200       18.8900      218.2101
    17347.9941      208.9500       19.0200      219.5341
    17358.4043      219.4800       19.5100      221.0310
    17368.8145      221.2700       19.6200      222.7358
    17379.2402      232.4000       20.1000      224.7008
    17389.6641      235.4800       20.2800      226.9988
    17400.0898      227.0100       19.9200      229.7633
    17410.5312      206.1900       19.0200      233.2547
    17420.9863      221.0100       19.6800      237.9899
    17431.4414      232.6900       20.2400      244.9877
    17441.8965      265.5200       21.6000      256.1862
    17452.3691      278.1700       22.1400      275.0481
    17462.8398      262.4700       21.5400      307.1209
    17473.3105      297.8400       22.9600      360.5375
    17483.7969      386.6400       26.1200      445.9250
    17494.2969      577.9200       31.9300      574.8884
    17504.7988      754.1600       36.5000      756.9333
    17515.2988     1026.0200       42.6100      995.4325
    17525.8008     1352.0100       48.9600     1283.3766
    17536.3164     1698.7000       54.8600     1600.3102
    17546.8340     1935.2800       58.7200     1910.8027
    17557.3496     2189.5300       62.4400     2169.4802
    17567.8965     2350.6599       64.6900     2331.9819
    17578.4434     2280.9299       63.9100     2368.3230
    17588.9902     2253.6899       63.5200     2276.0781
    17599.5371     1971.6801       59.5800     2077.8828
    17610.0840     1821.7800       57.2700     1811.2107
    17620.6621     1516.2000       52.2500     1516.0170
    17631.2383     1241.3101       47.4200     1228.6444
    17641.8164      955.5700       41.6100      973.7740
    17652.4102      763.2400       37.2600      763.9120
    17663.0020      643.3300       34.2700      601.9191
    17673.5938      487.8100       29.9100      483.2091
    17684.1855      428.3900       28.0800      399.8066
    17694.7949      383.6800       26.5900      342.9777
    17705.4180      351.4000       25.4900      305.1153
    17716.0410      279.7300       22.8100      280.1970
    17726.6641      299.4200       23.6200      263.7987
    17737.3008      244.0400       21.3500      252.8921
    17747.9551      247.6800       21.5400      245.5129
    17758.6074      259.5800       22.0800      240.4182
    17769.2617      272.4300       22.6400      236.8138
    17779.9160      290.7700       23.4100      234.2071
    17790.5840      252.0100       21.8200      232.2871
    17801.2676      246.0800       21.6000      230.8606
    17811.9512      241.5500       21.4300      229.8052
    17822.6348      239.1200       21.3600      229.0396
    17833.3203      224.0600       20.7200      228.5102
    17844.0195      251.4100       21.9300      228.1814
    17854.7324      238.7900       21.4100      228.0302
    17865.4473      209.6300       20.1100      228.0420
    17876.1621      230.9000       21.1200      228.2078
    17886.8926      267.0300       22.6900      228.5238
    17897.6211      228.8900       21.0900      228.8953
    17908.3496      212.7500       20.3500      229.5155
    17919.0957      226.4300       21.0200      230.2973
    17929.8555      248.6500       22.0100      231.2518
    17940.6152      255.5400       22.3700      232.3929
    17951.3750      246.4200       21.9800      233.7399
    17962.1504      225.3800       21.0700      235.3201
    17972.9258      225.8800       21.1200      237.1630
    17983.7012      209.2800       20.3800      239.3083
    17994.4902      229.8000       21.3400      241.8105
    18005.2969      246.1100       22.1000      244.7404
    18016.1016      225.2600       21.1900      248.1920
    18026.9082      225.6500       21.2500      252.3242
    18037.7129      219.5400       20.9900      257.4196
    18048.5352      244.5900       22.1400      264.0457
    18059.3711      261.2600       22.9100      273.3266
    18070.2070      280.0300       23.7400      287.4600
    18081.0430      330.7900       25.8200      310.5569
    18091.8945      352.5400       26.6400      349.8107
    18102.7598      383.9600       27.8400      416.6315
    18113.6270      511.4300       32.1400      527.2054
    18124.4941      626.1000       35.5900      701.7767
    18135.3594      909.3800       42.9100      961.4555
    18146.2422     1352.7000       52.3100     1323.1143
    18157.1387     1860.0300       61.4200     1790.3330
    18168.0352     2433.2400       70.3500     2344.9526
    18178.9316     3006.3301       78.3100     2942.9280
    18189.8301     3615.8799       86.0200     3514.4858
    18200.7422     3940.3301       89.8100     3973.7327
    18211.6680     4179.0801       92.6400     4239.0127
    18222.5957     4140.7002       92.3500     4262.6401
    18233.5234     3989.3999       90.7800     4048.7212
    18244.4648     3636.4099       86.6800     3645.4949
    18255.4082     3143.6299       80.8200     3126.3123
    18266.3516     2634.3301       73.9900     2567.6848
    18277.3242     2076.4199       65.7100     2032.0842
    18288.2969     1518.6100       56.3700     1564.0682
    18299.2695     1164.3800       49.3800     1184.0979
    18310.2441      834.4800       41.9500      893.9711
    18321.2168      719.3300       38.9700      683.5829
    18332.2207      564.9600       34.5600      536.8058
    18343.2246      464.2600       31.4500      437.8563
    18354.2266      450.7600       31.0000      372.4520
    18365.2461      341.3400       27.0600      329.4786
    18376.2637      307.0500       25.7100      301.1637
    18387.2832      290.6700       25.0700      282.1859
    18398.3184      286.8300       24.9100      269.1098
    18409.3672      285.1900       24.8700      259.7981
    18420.4160      264.7000       24.0100      252.9283
    18431.4648      281.9900       24.8100      247.6725
    18442.5137      250.1000       23.4200      243.5166
    18453.5781      256.1800       23.7000      240.1318
    18464.6582      254.9100       23.6700      237.3113
    18475.7383      251.5200       23.5500      234.9209
    18486.8164      201.2500       21.1400      232.8658
    18497.9121      191.3300       20.6300      231.0760
    18509.0059      258.9700       23.9900      229.5062
    18520.0996      217.2400       22.0100      228.1192
    18531.2109      259.9100       24.0700      226.8848
    18542.3359      236.9000       23.0000      225.7814
    18553.4609      222.7800       22.3800      224.7925
    18564.5859      185.8800       20.4800      223.9029
    18575.7266      203.4500       21.4400      223.0992
    18586.8828      227.4000       22.6400      222.3712
    18598.0371      230.0800       22.8300      221.7112
    18609.1934      203.2200       21.4800      221.1113
    18620.3652      195.0300       21.0800      220.5642
    18631.5352      227.4200       22.7600      220.0654
    18642.7070      225.5400       22.7000      219.6095
    18653.8926      228.7500       22.8600      219.1919
    18665.0938      188.5800       20.8300      218.8089
    18676.2969      241.0900       23.5200      218.4575
    18687.4980      218.6400       22.4500      218.1350
    18698.6992      259.3400       24.4400      217.8386
    18709.9160      250.9000       24.0500      217.5657
    18721.1465      207.8700       21.9600      217.3143
    18732.3789      196.4100       21.3900      217.0829
    18743.6250      247.1300       23.9400      216.8695
    18754.8730      206.1500       21.9600      216.6729
